# dimensionless total [l(l+1)/2pi] C_l's
# for l=2 to 3000, i.e. number of multipoles equal to 2999
#
# -> if you prefer output in CAMB/HealPix/LensPix units/order, set 'format' to 'camb' in input file
# -> if you don't want to see such a header, set 'headers' to 'no' in input file
# -> for CMB lensing (phi), these are C_l^phi-phi for the lensing potential.
#    Remember the conversion factors:
#    C_l^dd (deflection) = l(l+1) C_l^phi-phi
#    C_l^gg (shear/convergence) = 1/4 (l(l+1))^2 C_l^phi-phi
#
# 1:l     2:TT                     3:EE                     4:TE                     5:BB                     6:phiphi                 7:TPhi                   8:Ephi               
    2       1.367845811460e-10       4.159909739610e-15       3.530339841496e-13       0.000000000000e+00       8.223414299185e-09       4.443501019711e-10      -1.841287180824e-12 
    3       1.295976386960e-10       5.346996270447e-15       3.964553689312e-13       0.000000000000e+00       5.057848760769e-09       3.152514642630e-10      -1.396808959941e-12 
    4       1.227580996053e-10       4.640615161164e-15       3.707759138211e-13       0.000000000000e+00       3.514783357579e-09       2.387319930182e-10      -9.170778773696e-13 
    5       1.176308465764e-10       3.106584848025e-15       3.158443467849e-13       0.000000000000e+00       2.623083514277e-09       1.885475149189e-10      -5.124129181698e-13 
    6       1.141214520268e-10       1.741246430520e-15       2.544252912512e-13       0.000000000000e+00       2.049014934687e-09       1.533732607818e-10      -2.134350077214e-13 
    7       1.118429275681e-10       9.395587795078e-16       1.997536223693e-13       0.000000000000e+00       1.653304670087e-09       1.275567795006e-10      -2.191427570356e-14 
    8       1.105273884158e-10       6.028676591070e-16       1.576466211307e-13       0.000000000000e+00       1.366746172538e-09       1.079837006902e-10       7.665393288025e-14 
    9       1.099346730240e-10       4.823983407866e-16       1.293948544558e-13       0.000000000000e+00       1.151165137907e-09       9.280640431947e-11       1.051779689064e-13 
   10       1.098335220721e-10       4.113556143841e-16       1.137161841205e-13       0.000000000000e+00       9.840755063857e-10       8.078952697701e-11       8.919337071004e-14 
   11       1.101732925863e-10       3.459111989165e-16       1.079597027377e-13       0.000000000000e+00       8.273503884418e-10       7.139557123595e-11       5.264072240010e-14 
   12       1.107998317149e-10       3.009572380710e-16       1.090798200625e-13       0.000000000000e+00       7.227809315245e-10       6.311199855307e-11       1.309239647670e-14 
   13       1.116649707757e-10       2.879749543007e-16       1.143822452193e-13       0.000000000000e+00       6.369529541344e-10       5.639597374491e-11      -1.734656943637e-14 
   14       1.127288483348e-10       2.995055256264e-16       1.218057684960e-13       0.000000000000e+00       5.655577956643e-10       5.056088566750e-11      -3.424488022129e-14 
   15       1.139731849024e-10       3.237322240098e-16       1.300566659763e-13       0.000000000000e+00       5.054720266837e-10       4.565179805043e-11      -3.764096552255e-14 
   16       1.153204079700e-10       3.577926593937e-16       1.384533086220e-13       0.000000000000e+00       4.543925993674e-10       4.141738925120e-11      -3.133504757918e-14 
   17       1.168043691986e-10       4.071113554657e-16       1.467920855753e-13       0.000000000000e+00       4.105826392671e-10       3.771979000049e-11      -2.044773518062e-14 
   18       1.183604252218e-10       4.772606617481e-16       1.553140986338e-13       0.000000000000e+00       3.725629958314e-10       3.450335604272e-11      -9.869046706638e-15 
   19       1.200000688689e-10       5.686832714762e-16       1.642224441760e-13       0.000000000000e+00       3.397310543119e-10       3.171807409704e-11      -2.266634308150e-15 
   20       1.217177221667e-10       6.794693550246e-16       1.736482089364e-13       0.000000000000e+00       3.108179266827e-10       2.924128470898e-11       5.485979411333e-16 
   21       1.235133212540e-10       8.089620751566e-16       1.835757369527e-13       0.000000000000e+00       2.853685577198e-10       2.702772481314e-11      -9.316713133081e-16 
   22       1.253587180967e-10       9.566257901766e-16       1.938601469404e-13       0.000000000000e+00       2.627738723060e-10       2.502570684285e-11      -5.023971431241e-15 
   23       1.272607748541e-10       1.122695105225e-15       2.041608243887e-13       0.000000000000e+00       2.427227569256e-10       2.323106522561e-11      -9.986640810493e-15 
   24       1.292159663274e-10       1.307444859296e-15       2.140339621557e-13       0.000000000000e+00       2.247510027776e-10       2.163105513186e-11      -1.393508258150e-14 
   25       1.312238885621e-10       1.510888506305e-15       2.231996993722e-13       0.000000000000e+00       2.086466874630e-10       2.020106810676e-11      -1.600063648723e-14 
   26       1.332700079345e-10       1.733189605129e-15       2.314289656921e-13       0.000000000000e+00       1.941177882084e-10       1.889960322435e-11      -1.580319848977e-14 
   27       1.353518115816e-10       1.976326010117e-15       2.385994413059e-13       0.000000000000e+00       1.809897618338e-10       1.771313403550e-11      -1.392945606438e-14 
   28       1.374615831080e-10       2.242834531664e-15       2.446521192663e-13       0.000000000000e+00       1.690360667715e-10       1.662885692389e-11      -1.136199803614e-14 
   29       1.396081618418e-10       2.534211676971e-15       2.496470192662e-13       0.000000000000e+00       1.581954991511e-10       1.564400390087e-11      -8.759013988183e-15 
   30       1.417940064339e-10       2.851632238739e-15       2.537196192244e-13       0.000000000000e+00       1.483514470183e-10       1.474947872134e-11      -6.797738853429e-15 
   31       1.440111398595e-10       3.196208156256e-15       2.570107680959e-13       0.000000000000e+00       1.393028469790e-10       1.392781417612e-11      -6.110039807904e-15 
   32       1.462628100988e-10       3.568854304843e-15       2.594787238753e-13       0.000000000000e+00       1.310028615176e-10       1.317154913220e-11      -6.540412454739e-15 
   33       1.485472859802e-10       3.970358765842e-15       2.610160588160e-13       0.000000000000e+00       1.233927053785e-10       1.247006933525e-11      -7.597793094412e-15 
   34       1.508558234483e-10       4.401457709249e-15       2.614980666645e-13       0.000000000000e+00       1.163657572588e-10       1.180943818674e-11      -8.726969087894e-15 
   35       1.531899673079e-10       4.863006315133e-15       2.607881366135e-13       0.000000000000e+00       1.098859684583e-10       1.119126625808e-11      -9.628459796482e-15 
   36       1.555485585946e-10       5.355858790414e-15       2.587316346900e-13       0.000000000000e+00       1.039012591566e-10       1.061969523333e-11      -1.004141922347e-14 
   37       1.579263211033e-10       5.880822815569e-15       2.551867411034e-13       0.000000000000e+00       9.833362995421e-11       1.009596875571e-11      -9.749662509914e-15 
   38       1.603277254093e-10       6.438671278612e-15       2.501402912301e-13       0.000000000000e+00       9.316866044877e-11       9.617892943439e-12      -8.901981424924e-15 
   39       1.627565687732e-10       7.030128044771e-15       2.436308362734e-13       0.000000000000e+00       8.838994135117e-11       9.179671212801e-12      -7.801225209010e-15 
   40       1.652115602026e-10       7.655860146806e-15       2.357193760693e-13       0.000000000000e+00       8.395185258457e-11       8.771646539723e-12      -6.824749056622e-15 
   41       1.676887021585e-10       8.316496075198e-15       2.264649813171e-13       0.000000000000e+00       7.979545071549e-11       8.383265768517e-12      -6.325948877494e-15 
   42       1.701906904676e-10       9.012696587499e-15       2.158388504006e-13       0.000000000000e+00       7.590847632621e-11       8.013887627691e-12      -6.288730059424e-15 
   43       1.727196485542e-10       9.745100803800e-15       2.037845616189e-13       0.000000000000e+00       7.228059260524e-11       7.664964799918e-12      -6.568667939029e-15 
   44       1.752741176103e-10       1.051430415056e-14       1.902409912912e-13       0.000000000000e+00       6.888537888765e-11       7.336982525745e-12      -6.984343993490e-15 
   45       1.778508964088e-10       1.132085224325e-14       1.751486531126e-13       0.000000000000e+00       6.568976349262e-11       7.029620054461e-12      -7.357534155663e-15 
   46       1.804520390342e-10       1.216522542600e-14       1.584719494736e-13       0.000000000000e+00       6.268870211839e-11       6.742501015792e-12      -7.653490097271e-15 
   47       1.830793555590e-10       1.304784594829e-14       1.401828698801e-13       0.000000000000e+00       5.987868908894e-11       6.474516902610e-12      -7.878706499629e-15 
   48       1.857321877221e-10       1.396907920950e-14       1.202547926208e-13       0.000000000000e+00       5.724729818346e-11       6.223524486972e-12      -8.042242021896e-15 
   49       1.884071859985e-10       1.492923137791e-14       9.866246064379e-14       0.000000000000e+00       5.477251932199e-11       5.986271750957e-12      -8.155878640041e-15 
   50       1.911003500756e-10       1.592854365732e-14       7.538026494796e-14       0.000000000000e+00       5.242938512893e-11       5.759325842066e-12      -8.234691455457e-15 